* Measurement data measured by REW V5.19
* Source: Microphone (4- USB Sound Device        ), no input selected, R, volume: no control
* Format: 1M Log Swept Sine, 1 sweep at -20.0 dBFS  With no timing reference
* Dated: Jul 4, 2019 1:42:11 PM
* REW Settings:
*  C-weighting compensation: Off
*  Target level: 75.0 dB
* Note: ; 
* Measurement: Etymotics ER2SE - R
* Smoothing: 1/48 octave
* Frequency Step: 1/24 octave
* Start Frequency: 20.000 Hz
*
* Freq(Hz)	SPL(dB)	Phase(degrees)
20.000000	84.102493	-153.9427
20.600000	84.189613	-155.0901
21.200001	84.240479	-156.0574
21.799999	84.279411	-157.0084
22.400000	84.306412	-158.0699
23.000000	84.315567	-159.1920
23.600000	84.319260	-160.2583
24.299999	84.344643	-161.4346
25.000000	84.392693	-162.6620
25.799999	84.447227	-164.0711
26.500000	84.494370	-165.1785
27.200001	84.544876	-166.2095
28.000000	84.588577	-167.3328
29.000000	84.618866	-168.5429
30.000000	84.643707	-169.6542
30.700001	84.655449	-170.4471
31.500000	84.666382	-171.3703
32.500000	84.677994	-172.5648
33.500000	84.692169	-173.7049
34.500000	84.723892	-174.8095
35.500000	84.753296	-175.9034
36.500000	84.778336	-176.8520
37.500000	84.807220	-177.7503
38.700001	84.823647	-178.8021
40.000000	84.834961	-179.8699
41.200001	84.845688	179.1383
42.500000	84.866989	178.0243
43.700001	84.882385	177.0140
45.000000	84.906548	176.0138
46.200001	84.925797	175.1291
47.500000	84.936783	174.2410
48.700001	84.945778	173.4738
50.000000	84.956665	172.6094
51.500000	84.966148	171.5511
53.000000	84.976692	170.5804
54.500000	85.003685	169.6866
56.000000	85.024063	168.7666
58.000000	85.043083	167.7066
60.000000	85.093079	167.0514
61.500000	85.090843	165.7405
63.000000	85.090981	164.9899
65.000000	85.095734	163.8305
67.000000	85.121681	162.8256
69.000000	85.154572	161.8373
71.000000	85.171165	160.8725
73.000000	85.190887	159.8380
75.000000	85.212875	158.8893
77.500000	85.241302	157.7310
80.000000	85.265816	156.5948
82.500000	85.292976	155.4582
85.000000	85.309738	154.2719
87.500000	85.335571	153.1561
90.000000	85.354744	152.0413
92.500000	85.382553	150.9517
95.000000	85.400223	149.8429
97.500000	85.418175	148.7648
100.000000	85.435478	147.7303
103.000000	85.458427	146.4095
106.000000	85.467163	145.1987
109.000000	85.479736	144.0297
112.000000	85.488396	142.7844
115.000000	85.492744	141.6059
118.000000	85.500931	140.4412
122.000000	85.512184	138.9078
125.000000	85.514320	137.8005
128.000000	85.511826	136.7287
132.000000	85.512611	135.2611
136.000000	85.516006	133.8915
140.000000	85.514214	132.5248
145.000000	85.507423	130.8500
150.000000	85.500626	129.2388
155.000000	85.494087	127.6126
160.000000	85.494446	126.0382
165.000000	85.482239	124.5998
170.000000	85.473602	123.1314
175.000000	85.467392	121.6574
180.000000	85.465973	120.0735
185.000000	85.452454	118.8452
190.000000	85.442215	117.4789
195.000000	85.434845	116.2069
200.000000	85.426155	114.8803
206.000000	85.417084	113.3331
212.000000	85.409157	111.8206
218.000000	85.400734	110.3381
224.000000	85.380066	108.9024
230.000000	85.381302	107.4807
236.000000	85.369415	106.0800
243.000000	85.350883	104.4984
250.000000	85.339828	102.9136
258.000000	85.332306	101.1907
265.000000	85.322708	99.7353
272.000000	85.307060	98.2235
280.000000	85.297897	96.6287
290.000000	85.281471	94.6253
300.000000	85.255844	92.6152
307.000000	85.261810	91.3458
315.000000	85.253174	89.8497
325.000000	85.234764	88.0713
335.000000	85.226868	86.2661
345.000000	85.208893	84.5629
355.000000	85.201675	82.8286
365.000000	85.195740	81.1558
375.000000	85.183632	79.5681
387.000000	85.170555	77.7078
400.000000	85.161041	75.6769
412.000000	85.150330	73.8956
425.000000	85.145020	72.0199
437.000000	85.133698	70.3111
450.000000	85.124840	68.5746
462.000000	85.125832	67.0298
475.000000	85.110878	65.2427
487.000000	85.105621	63.6678
500.000000	85.103363	62.1032
515.000000	85.095314	60.2729
530.000000	85.089981	58.5114
545.000000	85.082085	56.7971
560.000000	85.060638	55.1214
580.000000	85.027313	53.0343
600.000000	85.007523	51.2235
615.000000	84.993256	49.9175
630.000000	84.990616	48.7016
650.000000	85.001068	47.0920
670.000000	85.010178	45.5431
690.000000	85.002274	44.1074
710.000000	85.007912	42.7831
730.000000	85.019699	41.5803
750.000000	85.041245	40.4435
775.000000	85.066849	39.1698
800.000000	85.110664	38.0317
825.000000	85.169586	37.0577
850.000000	85.232719	36.2523
875.000000	85.315987	35.6018
900.000000	85.417328	35.0756
925.000000	85.545212	34.6748
950.000000	85.697517	34.3684
975.000000	85.877617	34.1174
1000.000000	86.108780	33.8341
1030.000000	86.396027	33.6406
1060.000000	86.744324	33.3027
1090.000000	87.110573	32.7369
1120.000000	87.514061	32.2116
1150.000000	87.959862	31.3829
1180.000000	88.414299	30.1289
1220.000000	89.010063	28.0900
1250.000000	89.440598	26.2251
1280.000000	89.837845	24.0887
1320.000000	90.293640	20.9609
1360.000000	90.654282	17.9826
1400.000000	90.968620	15.3440
1450.000000	91.353935	12.3152
1500.000000	91.715118	9.4489
1550.000000	92.050789	6.7307
1600.000000	92.368454	4.2658
1650.000000	92.675056	1.9622
1700.000000	92.976746	-0.1914
1750.000000	93.277718	-2.1920
1800.000000	93.579002	-4.0835
1850.000000	93.880356	-5.8879
1900.000000	94.178581	-7.6831
1950.000000	94.476181	-9.4149
2000.000000	94.779526	-11.1362
2060.000000	95.121529	-13.2776
2120.000000	95.451813	-15.4505
2180.000000	95.761322	-17.6865
2240.000000	96.040268	-20.0040
2300.000000	96.282082	-22.3589
2360.000000	96.475716	-24.7681
2430.000000	96.636467	-27.5465
2500.000000	96.714760	-30.2137
2580.000000	96.704994	-32.9926
2650.000000	96.614502	-35.0665
2720.000000	96.451607	-36.7186
2800.000000	96.197670	-38.0193
2900.000000	95.796310	-38.6492
3000.000000	95.343597	-38.1857
3070.000000	95.004250	-37.2149
3150.000000	94.614563	-35.5290
3250.000000	94.129974	-32.5807
3350.000000	93.660942	-28.8398
3450.000000	93.210526	-24.3591
3550.000000	92.790436	-19.2300
3650.000000	92.396530	-13.5254
3750.000000	92.030182	-7.3262
3870.000000	91.624062	0.7081
4000.000000	91.233917	10.0631
4120.000000	90.899139	19.2283
4250.000000	90.572464	29.5935
4370.000000	90.299797	39.5507
4500.000000	90.027847	50.7706
4620.000000	89.790016	61.4223
4750.000000	89.534706	73.2747
4870.000000	89.305893	84.4955
5000.000000	89.050903	96.8929
5150.000000	88.737061	111.6305
5300.000000	88.401855	126.8133
5450.000000	88.025642	142.4982
5600.000000	87.620964	158.7037
5800.000000	87.029755	-178.7930
6000.000000	86.389694	-155.1497
6150.000000	85.889275	-136.5961
6300.000000	85.375122	-117.3628
6500.000000	84.693626	-90.6183
6700.000000	84.023148	-62.6860
6900.000000	83.390976	-33.6392
7100.000000	82.799080	-3.4775
7300.000000	82.257744	27.7224
7500.000000	81.798737	59.8511
7750.000000	81.327881	101.2378
8000.000000	81.011154	143.7749
8250.000000	80.917885	-172.7062
8500.000000	81.027153	-128.8647
8750.000000	81.318390	-85.1740
9000.000000	81.748367	-41.5612
9250.000000	82.358673	1.5530
9500.000000	83.130463	43.4927
9750.000000	83.996719	82.9467
10000.000000	84.664719	118.8345
10300.000000	84.523987	158.1378
10600.000000	82.964661	-160.1295
10900.000000	80.608246	-110.4022
11200.000000	78.206001	-53.2534
11500.000000	76.118866	9.6498
11800.000000	74.453171	76.8225
12200.000000	73.122787	171.0377
12500.000000	72.932396	-116.6067
12800.000000	73.512512	-44.5483
13200.000000	75.265076	46.6536
13600.000000	77.569420	128.5792
14000.000000	79.092232	-160.6644
14500.000000	78.188248	-74.7753
15000.000000	75.843811	26.3416
15500.000000	74.231400	138.1523
16000.000000	73.620132	-107.6284
16500.000000	73.722679	5.6025
17000.000000	74.293816	114.2085
17500.000000	74.615402	-145.9038
18000.000000	73.348763	-51.3215
18500.000000	70.319458	46.7451
19000.000000	66.624962	152.3882
19500.000000	62.924057	-98.3491
