* Measurement data measured by REW V5.20 Beta 24
* Source: Microphone (2- USB Sound Device        ), MICROPHONE (Master Volume), L, volume: 0.557
* Format: 1M Log Swept Sine, 1 sweep at -18.0 dBFS  With no timing reference
* Dated: Sep 21, 2019 8:48:21 PM
* REW Settings:
*  C-weighting compensation: Off
*  Target level: 77.6 dB
* Note: ; 
* Measurement: Shozy Form 1.1 - L
* Smoothing: 1/48 octave
* Frequency Step: 1/24 octave
* Start Frequency: 20.600 Hz
*
* Freq(Hz)	SPL(dB)	Phase(degrees)
20.600000	83.312569	-150.6043
21.200001	83.452721	-152.0195
21.799999	83.546654	-153.4478
22.400000	83.599838	-154.7461
23.000000	83.654793	-155.7782
23.600000	83.762421	-156.7894
24.299999	83.916168	-158.4752
25.000000	83.985352	-160.4631
25.799999	84.002579	-161.9090
26.500000	84.135933	-162.7551
27.200001	84.324387	-164.3671
28.000000	84.394691	-166.7091
29.000000	84.381805	-168.5832
30.000000	84.451408	-170.2616
30.700001	84.484230	-171.5460
31.500000	84.530220	-172.9234
32.500000	84.589157	-174.8129
33.500000	84.624451	-176.5069
34.500000	84.687836	-178.1026
35.500000	84.734337	-179.7207
36.500000	84.771378	178.8303
37.500000	84.809486	177.4160
38.700001	84.841393	175.7070
40.000000	84.876038	173.9215
41.200001	84.909576	172.1293
42.500000	84.919754	170.2991
43.700001	84.935043	168.7616
45.000000	84.959373	167.1500
46.200001	84.963058	165.6140
47.500000	84.958458	164.1232
48.700001	84.962685	162.6734
50.000000	84.960693	161.1750
51.500000	84.963791	159.3989
53.000000	84.961220	157.9281
54.500000	84.973198	156.3585
56.000000	84.958130	154.8492
58.000000	84.934265	152.7766
60.000000	84.871719	151.0687
61.500000	84.903099	149.5034
63.000000	84.885979	148.0725
65.000000	84.867249	146.3261
67.000000	84.858780	144.5003
69.000000	84.821342	142.6971
71.000000	84.790054	140.9910
73.000000	84.765320	139.3394
75.000000	84.748672	137.7520
77.500000	84.705589	135.6650
80.000000	84.658371	133.7282
82.500000	84.622475	131.8333
85.000000	84.580994	129.9556
87.500000	84.535545	128.0657
90.000000	84.498978	126.0876
92.500000	84.436272	124.4547
95.000000	84.385147	122.7533
97.500000	84.319786	121.0510
100.000000	84.268250	119.3740
103.000000	84.212967	117.4432
106.000000	84.153313	115.5307
109.000000	84.084877	113.5634
112.000000	84.015022	111.7170
115.000000	83.945984	109.8168
118.000000	83.868317	108.1065
122.000000	83.771576	105.7219
125.000000	83.681107	103.9283
128.000000	83.598679	102.2698
132.000000	83.491806	100.0750
136.000000	83.373322	97.9541
140.000000	83.271622	95.9139
145.000000	83.132843	93.4208
150.000000	82.992790	91.0552
155.000000	82.860252	88.7406
160.000000	82.723793	86.5032
165.000000	82.603943	84.3583
170.000000	82.478096	82.2185
175.000000	82.360245	80.0935
180.000000	82.223984	78.0999
185.000000	82.094681	76.1007
190.000000	81.965523	74.1841
195.000000	81.837677	72.3523
200.000000	81.720802	70.6751
206.000000	81.589340	68.7171
212.000000	81.476212	66.7595
218.000000	81.377159	64.7912
224.000000	81.285095	62.7893
230.000000	81.190788	60.7543
236.000000	81.098198	58.7804
243.000000	80.978531	56.4307
250.000000	80.859283	54.2026
258.000000	80.711349	51.7261
265.000000	80.614426	49.6188
272.000000	80.503426	47.5780
280.000000	80.364548	45.1673
290.000000	80.227364	42.3210
300.000000	80.060127	39.5324
307.000000	79.967667	37.7048
315.000000	79.869972	35.6368
325.000000	79.735504	32.9254
335.000000	79.614975	30.4485
345.000000	79.490982	27.9012
355.000000	79.374840	25.4475
365.000000	79.262398	23.0298
375.000000	79.170822	20.6486
387.000000	79.043213	17.8687
400.000000	78.930328	14.8710
412.000000	78.817017	12.2567
425.000000	78.694702	9.4218
437.000000	78.589127	6.8300
450.000000	78.481323	4.0416
462.000000	78.413788	1.7459
475.000000	78.319893	-0.8317
487.000000	78.238266	-3.4034
500.000000	78.186134	-6.0028
515.000000	78.094223	-8.9984
530.000000	78.012550	-11.9479
545.000000	77.932114	-14.9349
560.000000	77.862007	-17.6372
580.000000	77.750183	-21.4128
600.000000	77.660851	-25.0427
615.000000	77.603836	-27.7151
630.000000	77.551819	-30.2526
650.000000	77.452499	-33.5941
670.000000	77.361954	-37.0110
690.000000	77.274170	-40.2883
710.000000	77.200760	-43.2325
730.000000	77.156792	-46.0826
750.000000	77.133812	-49.1843
775.000000	77.078857	-52.8799
800.000000	77.023636	-56.5175
825.000000	76.979691	-59.8005
850.000000	76.963348	-63.0840
875.000000	76.965675	-66.1837
900.000000	76.957397	-69.1713
925.000000	76.970108	-72.1027
950.000000	77.034073	-74.8156
975.000000	77.100143	-77.6823
1000.000000	77.199852	-79.9164
1030.000000	77.349602	-83.3387
1060.000000	77.537827	-86.6970
1090.000000	77.751221	-90.0518
1120.000000	78.007370	-93.3970
1150.000000	78.266502	-97.0547
1180.000000	78.552505	-100.9426
1220.000000	78.919136	-106.4989
1250.000000	79.175980	-110.7357
1280.000000	79.410484	-115.1600
1320.000000	79.678802	-121.0982
1360.000000	79.916939	-127.0022
1400.000000	80.113274	-132.8943
1450.000000	80.343521	-140.0416
1500.000000	80.529610	-147.0284
1550.000000	80.718826	-153.7318
1600.000000	80.889908	-160.2501
1650.000000	81.041077	-166.6089
1700.000000	81.214417	-172.8122
1750.000000	81.369263	-178.8474
1800.000000	81.534889	175.1942
1850.000000	81.699234	169.3121
1900.000000	81.863899	163.5124
1950.000000	82.013428	157.7612
2000.000000	82.146553	152.2036
2060.000000	82.330925	145.3165
2120.000000	82.475517	138.5801
2180.000000	82.604782	131.9553
2240.000000	82.700638	125.4274
2300.000000	82.771385	118.9951
2360.000000	82.820801	112.7583
2430.000000	82.845657	105.8027
2500.000000	82.834053	99.1065
2580.000000	82.781990	91.8290
2650.000000	82.716331	85.9691
2720.000000	82.640434	80.4622
2800.000000	82.541962	74.6307
2900.000000	82.419724	68.0497
3000.000000	82.301659	62.3339
3070.000000	82.257599	58.5496
3150.000000	82.218437	54.7829
3250.000000	82.208595	50.5820
3350.000000	82.252853	46.8619
3450.000000	82.353706	43.5746
3550.000000	82.533218	40.5872
3650.000000	82.789772	37.8662
3750.000000	83.121628	35.0537
3870.000000	83.622162	31.2741
4000.000000	83.848343	27.8560
4120.000000	84.727234	24.7086
4250.000000	85.470207	18.6761
4370.000000	85.924812	11.8022
4500.000000	85.937233	5.1321
4620.000000	85.952591	2.7297
4750.000000	86.614777	-0.0106
4870.000000	87.216667	-6.4703
5000.000000	87.312080	-15.2730
5150.000000	86.763367	-23.6450
5300.000000	85.881805	-28.2783
5450.000000	84.975327	-29.5284
5600.000000	84.199600	-28.0731
5800.000000	83.461815	-23.2445
6000.000000	83.137428	-16.1781
6150.000000	83.168076	-9.8691
6300.000000	83.472847	-3.1769
6500.000000	84.331230	5.9297
6700.000000	85.828094	14.0586
6900.000000	88.151596	18.7499
7100.000000	91.253448	13.1990
7300.000000	92.934929	-11.9618
7500.000000	90.565102	-34.8663
7750.000000	86.297287	-35.9263
8000.000000	83.628601	-23.6290
8250.000000	81.986961	-8.0900
8500.000000	81.190201	7.5938
8750.000000	80.916237	21.3401
9000.000000	80.749702	31.8391
9250.000000	80.150345	39.9407
9500.000000	78.902649	49.1204
9750.000000	77.275047	62.5598
10000.000000	75.699776	80.2903
10300.000000	74.178986	105.5552
10600.000000	73.149811	133.6582
10900.000000	72.630379	162.5260
11200.000000	72.602104	-168.7468
11500.000000	72.957260	-141.4255
11800.000000	73.481560	-117.0156
12200.000000	73.966690	-88.6326
12500.000000	73.821426	-70.0538
12800.000000	73.093506	-50.6447
13200.000000	71.689613	-21.8495
13600.000000	69.837959	10.8351
14000.000000	67.810532	47.9221
14500.000000	65.788254	99.2280
15000.000000	63.985279	153.5581
15500.000000	62.830193	-151.7592
16000.000000	61.334671	-101.0169
16500.000000	57.029430	-41.9946
17000.000000	55.157909	63.0548
17500.000000	60.660233	145.8350
18000.000000	65.157082	-168.4304
18500.000000	66.666000	-120.0990
19000.000000	68.132370	-72.7070
19500.000000	68.864738	-24.4716
