* Measurement data measured by REW V5.20 Beta 26
* Source: Microphone (2- USB Sound Device        ), MICROPHONE (Master Volume), R, volume: 0.557
* Format: 1M Log Swept Sine, 1 sweep at 0.0 dBFS With no timing reference
* Dated: Nov 7, 2019 3:17:19 PM
* REW Settings:
*  C-weighting compensation: Off
*  Target level: 75.0 dB
* Note: ; 
* Measurement: iBasso IT01s - R
* Smoothing: 1/48 octave
* Frequency Step: 1/24 octave
* Start Frequency: 20.600 Hz
*
* Freq(Hz)	SPL(dB)	Phase(degrees)
20.600000	85.745872	-150.5019
21.200001	85.759705	-150.3583
21.799999	85.719070	-150.1385
22.400000	85.675705	-149.8416
23.000000	85.651413	-149.6982
23.600000	85.623001	-149.7880
24.299999	85.573013	-149.9124
25.000000	85.545799	-149.8559
25.799999	85.569328	-149.8087
26.500000	85.596306	-149.8562
27.200001	85.615044	-149.7789
28.000000	85.645538	-149.5779
29.000000	85.648354	-149.3325
30.000000	85.625870	-148.7197
30.700001	85.631866	-148.3599
31.500000	85.611214	-148.1104
32.500000	85.590866	-147.5898
33.500000	85.614883	-147.4872
34.500000	85.561333	-147.4209
35.500000	85.548271	-146.7790
36.500000	85.583237	-146.3694
37.500000	85.584839	-145.9507
38.700001	85.587433	-145.3324
40.000000	85.577148	-144.7127
41.200001	85.561783	-144.2423
42.500000	85.535606	-143.7274
43.700001	85.531479	-143.2248
45.000000	85.537704	-142.7159
46.200001	85.537262	-142.1769
47.500000	85.545029	-141.5438
48.700001	85.533180	-140.9784
50.000000	85.525345	-140.3140
51.500000	85.509056	-139.5980
53.000000	85.509445	-138.9572
54.500000	85.499268	-138.1708
56.000000	85.510963	-137.4594
58.000000	85.506470	-136.4501
60.000000	85.541092	-135.2685
61.500000	85.498627	-134.6785
63.000000	85.514221	-133.9190
65.000000	85.524780	-132.8730
67.000000	85.516602	-132.0742
69.000000	85.521416	-131.0401
71.000000	85.524857	-130.0954
73.000000	85.532585	-129.2034
75.000000	85.546646	-128.3381
77.500000	85.555695	-127.2088
80.000000	85.563217	-126.0568
82.500000	85.565338	-124.9734
85.000000	85.574623	-124.0049
87.500000	85.585503	-122.9301
90.000000	85.590034	-121.8717
92.500000	85.596558	-120.8242
95.000000	85.600677	-119.8763
97.500000	85.611420	-118.8857
100.000000	85.606934	-117.8714
103.000000	85.605957	-116.6480
106.000000	85.603989	-115.4794
109.000000	85.593681	-114.3276
112.000000	85.569176	-113.2142
115.000000	85.555328	-112.0625
118.000000	85.545258	-110.9288
122.000000	85.512993	-109.4165
125.000000	85.498917	-108.3299
128.000000	85.492615	-107.2177
132.000000	85.465103	-105.7171
136.000000	85.441223	-104.2315
140.000000	85.416664	-102.7319
145.000000	85.393463	-100.8435
150.000000	85.354019	-98.9800
155.000000	85.316521	-97.1377
160.000000	85.269753	-95.2864
165.000000	85.230042	-93.4578
170.000000	85.180626	-91.6176
175.000000	85.136742	-89.8238
180.000000	85.099945	-87.9579
185.000000	85.053307	-86.1230
190.000000	85.009834	-84.2931
195.000000	84.972519	-82.4664
200.000000	84.925301	-80.7121
206.000000	84.871094	-78.5091
212.000000	84.819031	-76.3476
218.000000	84.761971	-74.1744
224.000000	84.705231	-72.0469
230.000000	84.649345	-69.9480
236.000000	84.581894	-67.8021
243.000000	84.514977	-65.3114
250.000000	84.456635	-62.8362
258.000000	84.378891	-60.1054
265.000000	84.284508	-57.6992
272.000000	84.221802	-55.2513
280.000000	84.158813	-52.4270
290.000000	84.064796	-49.0196
300.000000	83.959137	-45.6023
307.000000	83.887383	-43.2389
315.000000	83.808861	-40.4810
325.000000	83.712952	-37.1192
335.000000	83.612625	-33.7371
345.000000	83.514427	-30.4221
355.000000	83.420837	-27.0678
365.000000	83.328644	-23.7816
375.000000	83.228203	-20.5145
387.000000	83.114410	-16.5781
400.000000	82.992027	-12.3367
412.000000	82.877876	-8.4637
425.000000	82.759621	-4.2336
437.000000	82.659348	-0.4117
450.000000	82.538445	3.6913
462.000000	82.436203	7.4484
475.000000	82.307861	11.5281
487.000000	82.207901	15.3161
500.000000	82.102188	19.3499
515.000000	81.975861	23.9939
530.000000	81.838982	28.5324
545.000000	81.709991	33.1347
560.000000	81.600464	37.7728
580.000000	81.464134	43.7113
600.000000	81.310745	49.5752
615.000000	81.208771	53.9895
630.000000	81.088478	58.3406
650.000000	80.932716	64.1044
670.000000	80.784927	69.9150
690.000000	80.624329	75.6241
710.000000	80.460129	81.4896
730.000000	80.319649	87.3392
750.000000	80.168068	93.1299
775.000000	80.016159	100.5367
800.000000	79.870071	107.8383
825.000000	79.754166	115.1053
850.000000	79.660431	122.4263
875.000000	79.577225	129.6726
900.000000	79.526093	136.9569
925.000000	79.498482	144.1023
950.000000	79.501610	151.1531
975.000000	79.532928	158.0927
1000.000000	79.629509	164.9473
1030.000000	79.698273	172.9564
1060.000000	79.822899	-179.2018
1090.000000	79.997185	-171.7442
1120.000000	80.183060	-164.6290
1150.000000	80.395752	-157.8051
1180.000000	80.616493	-151.3289
1220.000000	80.908264	-143.1881
1250.000000	81.110466	-137.4869
1280.000000	81.309608	-131.9314
1320.000000	81.545349	-124.9205
1360.000000	81.770775	-118.1657
1400.000000	81.962723	-111.6526
1450.000000	82.192940	-103.7539
1500.000000	82.403709	-96.1241
1550.000000	82.612259	-88.7521
1600.000000	82.807854	-81.5027
1650.000000	83.008682	-74.6000
1700.000000	83.218414	-67.8296
1750.000000	83.434883	-61.3564
1800.000000	83.660522	-55.1130
1850.000000	83.912025	-49.1934
1900.000000	84.176056	-43.5669
1950.000000	84.443382	-38.3754
2000.000000	84.711456	-33.7516
2060.000000	84.982605	-28.4719
2120.000000	85.238243	-23.6244
2180.000000	85.472382	-19.2506
2240.000000	85.676186	-15.2637
2300.000000	85.842911	-11.6512
2360.000000	85.959946	-8.3281
2430.000000	86.053894	-4.6565
2500.000000	86.102615	-1.2286
2580.000000	86.098549	2.4771
2650.000000	86.046257	5.5671
2720.000000	85.954849	8.7040
2800.000000	85.831268	12.3308
2900.000000	85.663109	16.9078
3000.000000	85.512695	21.4617
3070.000000	85.425049	24.7378
3150.000000	85.335716	28.2838
3250.000000	85.264374	32.6439
3350.000000	85.246445	36.8464
3450.000000	85.303802	40.7649
3550.000000	85.415558	44.2723
3650.000000	85.594345	47.4088
3750.000000	85.855728	50.0450
3870.000000	86.271080	52.3242
4000.000000	86.863678	53.5801
4120.000000	87.569649	53.3168
4250.000000	88.479843	50.1321
4370.000000	89.287102	43.8192
4500.000000	89.838936	33.0543
4620.000000	89.745949	20.5945
4750.000000	88.878082	7.4387
4870.000000	87.589584	-2.1697
5000.000000	86.003761	-9.3995
5150.000000	84.193680	-14.5542
5300.000000	82.565842	-16.9498
5450.000000	81.390724	-18.3796
5600.000000	80.253807	-20.5208
5800.000000	78.940331	-22.4358
6000.000000	77.905632	-24.0267
6150.000000	77.294220	-25.5045
6300.000000	76.831970	-27.3188
6500.000000	76.378304	-30.0225
6700.000000	76.192978	-33.5689
6900.000000	76.214012	-37.9872
7100.000000	76.440201	-43.3041
7300.000000	76.913826	-49.6534
7500.000000	77.707390	-57.0170
7750.000000	79.221069	-68.5169
8000.000000	81.428299	-83.9817
8250.000000	84.820976	-107.9387
8500.000000	88.206894	-153.5531
8750.000000	87.207863	146.1944
9000.000000	83.510284	108.0820
9250.000000	80.658569	83.5555
9500.000000	78.875023	63.0486
9750.000000	77.930878	43.5160
10000.000000	77.833862	23.1028
10300.000000	78.814743	-5.4196
10600.000000	81.082718	-45.6525
10900.000000	81.976700	-111.5958
11200.000000	78.057465	-172.4134
11500.000000	73.646538	149.3110
11800.000000	70.527512	118.4760
12200.000000	67.711693	79.9992
12500.000000	66.405418	51.4965
12800.000000	65.805222	22.0941
13200.000000	65.929192	-22.5880
13600.000000	66.420784	-73.8969
14000.000000	66.776649	-129.9758
14500.000000	67.114876	157.9811
15000.000000	68.288162	84.6577
15500.000000	71.061974	3.1306
16000.000000	74.350357	-106.1329
16500.000000	71.615166	131.2158
17000.000000	67.246918	39.9028
17500.000000	65.063026	-42.5127
18000.000000	64.193977	-129.1927
18500.000000	64.127327	139.2151
19000.000000	64.997780	34.0737
19500.000000	64.029205	-91.7858
