* Measurement data measured by REW V5.20
* Source: Headset (USB-C to 3.5mm Headphone Jack Adapter), MICROPHONE (Master Volume), R, volume: 0.260
* Format: 256k Log Swept Sine, 1 sweep at -6.0 dBFS with no timing reference
* Dated: Apr 5, 2021 1:52:04 PM
* REW Settings:
*  C-weighting compensation: Off
*  Target level: 75.0 dB
* Note: ; 
* Measurement: UM MEST MK2 - R
* Smoothing: 1/48 octave
* Frequency Step: 1/24 octave
* Start Frequency: 20.600 Hz
*
* Freq(Hz)	SPL(dB)	Phase(degrees)
20.600000	95.236343	-148.4433
21.200001	95.207352	-150.0496
21.799999	95.172173	-151.6796
22.400000	95.133492	-153.2802
23.000000	95.099533	-154.7942
23.600000	95.072075	-156.2637
24.299999	95.030853	-157.9639
25.000000	94.971138	-159.5601
25.799999	94.902573	-161.2523
26.500000	94.846497	-162.7528
27.200001	94.783295	-164.2608
28.000000	94.707596	-165.9059
29.000000	94.608955	-167.8735
30.000000	94.505447	-169.7254
30.700001	94.455254	-171.0130
31.500000	94.394531	-172.4560
32.500000	94.323250	-174.0244
33.500000	94.263069	-175.6209
34.500000	94.157867	-177.2575
35.500000	94.050949	-178.6981
36.500000	93.958160	179.8138
37.500000	93.859467	178.4007
38.700001	93.747681	176.7724
40.000000	93.618690	175.1891
41.200001	93.508972	173.6866
42.500000	93.373001	172.1805
43.700001	93.254784	170.8529
45.000000	93.121315	169.4830
46.200001	92.996933	168.2174
47.500000	92.855949	166.9568
48.700001	92.734886	165.8101
50.000000	92.613037	164.6068
51.500000	92.446899	163.2831
53.000000	92.287872	162.0274
54.500000	92.136238	160.8347
56.000000	92.003036	159.7484
58.000000	91.844879	158.2410
60.000000	91.685654	157.1733
61.500000	91.563171	155.9348
63.000000	91.448563	154.9719
65.000000	91.292313	153.8438
67.000000	91.135811	152.6335
69.000000	90.982079	151.6078
71.000000	90.828011	150.5762
73.000000	90.678490	149.6352
75.000000	90.529587	148.6906
77.500000	90.373383	147.5527
80.000000	90.172310	146.5845
82.500000	89.993484	145.6081
85.000000	89.825897	144.6998
87.500000	89.658295	143.8562
90.000000	89.492218	143.0369
92.500000	89.329285	142.2930
95.000000	89.176506	141.5581
97.500000	89.019646	140.8599
100.000000	88.870773	140.2278
103.000000	88.715126	139.5096
106.000000	88.566719	138.7864
109.000000	88.420891	138.1553
112.000000	88.282806	137.5422
115.000000	88.144638	136.9233
118.000000	88.018211	136.3604
122.000000	87.843842	135.6902
125.000000	87.719406	135.1982
128.000000	87.598892	134.7239
132.000000	87.444580	134.1643
136.000000	87.295105	133.6400
140.000000	87.156250	133.1578
145.000000	86.987030	132.5273
150.000000	86.818649	132.0023
155.000000	86.667564	131.5997
160.000000	86.523575	131.0211
165.000000	86.381042	130.6061
170.000000	86.254745	130.1946
175.000000	86.128670	129.8082
180.000000	86.004753	129.4384
185.000000	85.900696	129.0922
190.000000	85.796249	128.7466
195.000000	85.700851	128.4589
200.000000	85.607124	128.1832
206.000000	85.502289	127.8297
212.000000	85.402603	127.4961
218.000000	85.311409	127.2047
224.000000	85.227882	126.8766
230.000000	85.146973	126.6040
236.000000	85.077332	126.3207
243.000000	85.002724	126.0326
250.000000	84.939064	125.7344
258.000000	84.874641	125.4230
265.000000	84.814590	125.1064
272.000000	84.772011	124.8060
280.000000	84.724266	124.5191
290.000000	84.677025	124.1058
300.000000	84.633751	123.7906
307.000000	84.622398	123.4083
315.000000	84.606453	123.1059
325.000000	84.593849	122.7194
335.000000	84.589043	122.3106
345.000000	84.591125	121.9019
355.000000	84.602600	121.5129
365.000000	84.617744	121.0967
375.000000	84.639542	120.6435
387.000000	84.676178	120.1421
400.000000	84.718193	119.5885
412.000000	84.761612	119.0240
425.000000	84.817322	118.4143
437.000000	84.872780	117.8367
450.000000	84.937469	117.1951
462.000000	84.998833	116.6097
475.000000	85.065430	115.9503
487.000000	85.132004	115.2960
500.000000	85.203018	114.6254
515.000000	85.289024	113.8053
530.000000	85.371185	112.9918
545.000000	85.454475	112.1679
560.000000	85.534256	111.3389
580.000000	85.637558	110.2143
600.000000	85.736923	109.1305
615.000000	85.806389	108.2838
630.000000	85.875687	107.4686
650.000000	85.959961	106.3729
670.000000	86.035500	105.3156
690.000000	86.110268	104.2845
710.000000	86.177063	103.2319
730.000000	86.224663	102.2146
750.000000	86.243690	101.2438
775.000000	86.245804	100.5048
800.000000	86.309776	100.0156
825.000000	86.402168	99.3510
850.000000	86.488632	98.5317
875.000000	86.524330	97.6410
900.000000	86.546768	97.1505
925.000000	86.598610	96.8097
950.000000	86.662720	96.4603
975.000000	86.734001	96.1103
1000.000000	86.813377	95.7545
1030.000000	86.909737	95.3028
1060.000000	87.006104	94.8092
1090.000000	87.100052	94.2798
1120.000000	87.187981	93.7231
1150.000000	87.264633	93.1422
1180.000000	87.331909	92.5371
1220.000000	87.399666	91.7691
1250.000000	87.437683	91.2315
1280.000000	87.465401	90.7435
1320.000000	87.486542	90.1684
1360.000000	87.494003	89.7403
1400.000000	87.490211	89.4129
1450.000000	87.478943	89.1870
1500.000000	87.464844	89.1351
1550.000000	87.450272	89.2538
1600.000000	87.444099	89.5094
1650.000000	87.444199	89.8646
1700.000000	87.456192	90.3138
1750.000000	87.476646	90.8295
1800.000000	87.508621	91.4036
1850.000000	87.551971	91.9989
1900.000000	87.608284	92.6090
1950.000000	87.677040	93.1930
2000.000000	87.752960	93.7536
2060.000000	87.858223	94.3719
2120.000000	87.981087	94.9109
2180.000000	88.114807	95.3605
2240.000000	88.254120	95.6714
2300.000000	88.404213	95.8410
2360.000000	88.559448	95.8525
2430.000000	88.737671	95.6508
2500.000000	88.913818	95.1925
2580.000000	89.104210	94.3751
2650.000000	89.258263	93.3950
2720.000000	89.400208	92.1574
2800.000000	89.539093	90.4180
2900.000000	89.677948	87.8002
3000.000000	89.768738	84.6463
3070.000000	89.798660	82.1288
3150.000000	89.795456	78.9190
3250.000000	89.725388	74.4589
3350.000000	89.566727	69.5423
3450.000000	89.303658	64.3380
3550.000000	88.930832	59.1639
3650.000000	88.490334	54.4290
3750.000000	88.065277	50.3281
3870.000000	87.696312	46.0065
4000.000000	87.570641	41.1027
4120.000000	87.496704	35.0828
4250.000000	87.640045	31.6001
4370.000000	88.200264	25.6550
4500.000000	88.861496	17.8550
4620.000000	89.432297	9.1258
4750.000000	89.717445	-0.9293
4870.000000	89.672836	-8.2675
5000.000000	89.647980	-13.1585
5150.000000	89.923477	-16.7397
5300.000000	90.464081	-20.1704
5450.000000	91.077759	-24.3818
5600.000000	91.592628	-29.4405
5800.000000	91.917160	-36.5536
6000.000000	91.796577	-42.3644
6150.000000	91.529663	-45.0529
6300.000000	91.220360	-46.1979
6500.000000	90.869232	-45.8519
6700.000000	90.647652	-44.2687
6900.000000	90.529968	-42.2876
7100.000000	90.471123	-40.3457
7300.000000	90.413460	-38.8018
7500.000000	90.245926	-37.6379
7750.000000	89.819016	-35.5553
8000.000000	89.308235	-31.9672
8250.000000	88.778633	-27.4706
8500.000000	88.255760	-21.5684
8750.000000	87.877701	-14.5117
9000.000000	87.711548	-6.9333
9250.000000	87.778687	0.3558
9500.000000	88.030724	6.6370
9750.000000	88.370995	11.4374
10000.000000	88.698792	14.6359
10300.000000	88.906898	16.8804
10600.000000	88.903099	18.6613
10900.000000	88.824417	20.3308
11200.000000	88.731537	21.2628
11500.000000	88.491173	20.8440
11800.000000	87.935745	20.1437
12200.000000	86.895195	21.5933
12500.000000	86.273148	24.8510
12800.000000	86.065216	28.3375
13200.000000	86.373764	29.6918
13600.000000	87.005066	24.2645
14000.000000	87.181847	8.8031
14500.000000	84.797394	-16.6487
15000.000000	80.378273	-30.1616
15500.000000	76.327980	-31.9432
16000.000000	73.443634	-30.5140
16500.000000	71.728317	-32.5876
17000.000000	70.436066	-42.4211
17500.000000	69.151596	-59.0742
18000.000000	67.795860	-83.8523
18500.000000	66.149811	-120.2875
19000.000000	62.091164	-170.5945
19500.000000	54.117302	160.3121
