* Measurement data measured by REW V5.20.13
* Source: Headset (2- USB-C to 3.5mm Headphone Jack Adapter), MICROPHONE (Master Volume), R, volume: 0.250. Timing signal peak level -64.7 dBFS, measurement signal peak level -24.8 dBFS
* Format: 512k Log Swept Sine, 1 sweep at -6.0 dBFS using an acoustic timing reference
* Dated: Jun 24, 2023 5:18:55 PM
* REW Settings:
*  C-weighting compensation: Off
*  Target level: 75.0 dB
* Note: ; Delay 0.0022 ms (0.74 mm, 0.03 in) using estimated IR delay relative to Acoustic reference played from  L with no timing offset Clock adjustment: -0.2 ppm
* Measurement: Quartet R
* Smoothing: 1/48 octave
* Frequency Step: 1/24 octave
* Start Frequency: 20.600 Hz
*
* Freq(Hz)	SPL(dB)	Phase(degrees)
20.600000	91.635	-112.7696
21.200001	91.761	-114.5554
21.799999	91.873	-116.2849
22.400000	91.966	-117.9688
23.000000	92.037	-119.5949
23.600000	92.099	-121.1537
24.299999	92.167	-122.9034
25.000000	92.224	-124.5999
25.799999	92.268	-126.4734
26.500000	92.300	-128.0435
27.200001	92.330	-129.5463
28.000000	92.366	-131.2310
29.000000	92.405	-133.3389
30.000000	92.427	-135.2279
30.700001	92.433	-136.4330
31.500000	92.447	-137.8710
32.500000	92.472	-139.6607
33.500000	92.488	-141.3146
34.500000	92.499	-142.9097
35.500000	92.507	-144.4081
36.500000	92.512	-145.8934
37.500000	92.516	-147.3155
38.700001	92.509	-148.9738
40.000000	92.512	-150.6610
41.200001	92.513	-152.1058
42.500000	92.498	-153.6962
43.700001	92.485	-155.1532
45.000000	92.479	-156.5510
46.200001	92.468	-157.8416
47.500000	92.449	-159.1583
48.700001	92.430	-160.3394
50.000000	92.414	-161.6085
51.500000	92.391	-162.9335
53.000000	92.364	-164.3066
54.500000	92.336	-165.5790
56.000000	92.309	-166.8327
58.000000	92.270	-168.4184
60.000000	92.200	-169.7824
61.500000	92.196	-170.9779
63.000000	92.159	-172.0283
65.000000	92.115	-173.3633
67.000000	92.067	-174.6529
69.000000	92.019	-175.8615
71.000000	91.966	-177.0731
73.000000	91.913	-178.2177
75.000000	91.858	-179.3267
77.500000	91.787	179.3633
80.000000	91.716	178.1065
82.500000	91.641	176.9051
85.000000	91.566	175.7395
87.500000	91.490	174.6391
90.000000	91.412	173.5697
92.500000	91.338	172.5524
95.000000	91.263	171.5482
97.500000	91.182	170.6151
100.000000	91.107	169.7115
103.000000	91.018	168.6493
106.000000	90.926	167.6371
109.000000	90.836	166.6794
112.000000	90.748	165.7481
115.000000	90.658	164.8610
118.000000	90.568	164.0096
122.000000	90.449	162.9349
125.000000	90.359	162.1679
128.000000	90.268	161.4308
132.000000	90.148	160.4874
136.000000	90.026	159.6016
140.000000	89.904	158.7631
145.000000	89.752	157.7861
150.000000	89.599	156.8574
155.000000	89.446	155.9963
160.000000	89.294	155.2050
165.000000	89.143	154.4610
170.000000	88.990	153.7780
175.000000	88.839	153.1424
180.000000	88.687	152.5089
185.000000	88.540	152.0173
190.000000	88.392	151.5215
195.000000	88.245	151.0714
200.000000	88.099	150.6608
206.000000	87.926	150.2308
212.000000	87.755	149.8477
218.000000	87.586	149.5181
224.000000	87.421	149.2471
230.000000	87.259	149.0247
236.000000	87.098	148.8430
243.000000	86.915	148.6959
250.000000	86.737	148.6107
258.000000	86.541	148.5875
265.000000	86.376	148.6183
272.000000	86.215	148.7078
280.000000	86.039	148.8634
290.000000	85.834	149.1368
300.000000	85.632	149.4683
307.000000	85.515	149.7600
315.000000	85.380	150.1253
325.000000	85.226	150.6033
335.000000	85.087	151.1257
345.000000	84.965	151.6624
355.000000	84.857	152.2082
365.000000	84.762	152.7430
375.000000	84.679	153.2742
387.000000	84.594	153.8679
400.000000	84.520	154.4657
412.000000	84.461	154.9767
425.000000	84.407	155.4657
437.000000	84.364	155.8632
450.000000	84.323	156.2466
462.000000	84.288	156.5654
475.000000	84.253	156.8698
487.000000	84.222	157.1107
500.000000	84.189	157.3547
515.000000	84.151	157.6067
530.000000	84.115	157.8438
545.000000	84.078	158.0682
560.000000	84.042	158.3040
580.000000	83.994	158.6025
600.000000	83.950	158.9278
615.000000	83.918	159.1792
630.000000	83.889	159.4377
650.000000	83.853	159.8057
670.000000	83.822	160.1899
690.000000	83.795	160.5952
710.000000	83.771	161.0256
730.000000	83.745	161.5974
750.000000	83.776	162.3170
775.000000	83.822	162.7258
800.000000	83.852	163.2208
825.000000	83.895	163.7361
850.000000	83.952	164.2342
875.000000	84.022	164.6927
900.000000	84.097	165.0831
925.000000	84.172	165.4050
950.000000	84.236	165.7086
975.000000	84.281	166.1232
1000.000000	84.322	166.8832
1030.000000	84.448	168.3629
1060.000000	84.735	169.7584
1090.000000	85.108	170.3758
1120.000000	85.480	170.2496
1150.000000	85.819	169.6466
1180.000000	86.120	168.7459
1220.000000	86.469	167.2827
1250.000000	86.695	166.0515
1280.000000	86.895	164.7577
1320.000000	87.122	162.9857
1360.000000	87.310	161.2145
1400.000000	87.463	159.5027
1450.000000	87.618	157.5027
1500.000000	87.748	155.6932
1550.000000	87.866	154.0884
1600.000000	87.985	152.6609
1650.000000	88.116	151.3595
1700.000000	88.262	150.1276
1750.000000	88.425	148.9004
1800.000000	88.603	147.6267
1850.000000	88.791	146.2640
1900.000000	88.984	144.7792
1950.000000	89.174	143.1739
2000.000000	89.356	141.4399
2060.000000	89.555	139.2104
2120.000000	89.727	136.8412
2180.000000	89.865	134.3690
2240.000000	89.964	131.8503
2300.000000	90.024	129.3380
2360.000000	90.045	126.8847
2430.000000	90.024	124.1683
2500.000000	89.964	121.6495
2580.000000	89.854	119.0479
2650.000000	89.736	117.0407
2720.000000	89.606	115.2820
2800.000000	89.455	113.5576
2900.000000	89.281	111.7503
3000.000000	89.136	110.2141
3070.000000	89.055	109.2388
3150.000000	88.983	108.1602
3250.000000	88.919	106.7850
3350.000000	88.873	105.2918
3450.000000	88.827	103.6267
3550.000000	88.768	101.7688
3650.000000	88.680	99.6703
3750.000000	88.537	97.2744
3870.000000	88.226	94.0827
4000.000000	87.622	90.8405
4120.000000	86.788	89.2430
4250.000000	85.700	90.7266
4370.000000	84.854	96.1571
4500.000000	84.648	105.2700
4620.000000	85.342	112.8204
4750.000000	86.665	116.1052
4870.000000	87.859	113.8980
5000.000000	88.680	107.4632
5150.000000	88.806	98.4442
5300.000000	88.221	90.9408
5450.000000	87.233	87.1300
5600.000000	86.251	86.2216
5800.000000	85.079	88.1342
6000.000000	84.166	92.4242
6150.000000	83.670	96.6270
6300.000000	83.337	101.3627
6500.000000	83.152	108.1467
6700.000000	83.263	115.0540
6900.000000	83.683	121.6887
7100.000000	84.450	127.4449
7300.000000	85.543	131.5747
7500.000000	86.988	132.6982
7750.000000	88.881	127.3095
8000.000000	90.031	114.3845
8250.000000	89.915	100.1833
8500.000000	89.167	89.3406
8750.000000	88.268	80.0384
9000.000000	87.071	70.9302
9250.000000	85.481	63.3681
9500.000000	83.742	57.7071
9750.000000	81.817	49.8858
10000.000000	77.658	38.6812
10300.000000	71.721	99.9382
10600.000000	76.767	118.3212
10900.000000	78.700	117.2832
11200.000000	79.942	114.8560
11500.000000	80.865	109.9329
11800.000000	81.345	102.6942
12200.000000	81.209	92.5939
12500.000000	80.821	86.6841
12800.000000	80.543	81.9722
13200.000000	80.742	74.9166
13600.000000	81.730	61.2318
14000.000000	82.448	33.8095
14500.000000	80.339	-8.5510
15000.000000	76.200	-36.8667
15500.000000	72.653	-54.5752
16000.000000	69.609	-69.3638
16500.000000	66.792	-79.8215
17000.000000	64.939	-88.0933
17500.000000	64.073	-100.5125
18000.000000	63.825	-120.9027
18500.000000	64.275	-149.4451
19000.000000	67.800	164.3552
19500.000000	70.207	60.1006
