* Measurement data measured by REW V5.20.13
* Source: Headset (2- USB-C to 3.5mm Headphone Jack Adapter), MICROPHONE (Master Volume), R, volume: 0.500. Timing signal peak level -19.2 dBFS, measurement signal peak level -19.0 dBFS
* Format: 256k Log Swept Sine, 1 sweep at -3.0 dBFS using an acoustic timing reference
* Dated: Sep 15, 2023 3:35:34 PM
* REW Settings:
*  C-weighting compensation: Off
*  Target level: 75.0 dB
* Note: ; Delay -0.1065 ms (-37 mm, -1.44 in) using estimated IR delay relative to Acoustic reference played from  L with no timing offset Clock adjustment: 0.2 ppm
* Measurement: Quintet L
* Smoothing: 1/48 octave
* Frequency Step: 1/24 octave
* Start Frequency: 20.600 Hz
*
* Freq(Hz)	SPL(dB)	Phase(degrees)
20.600000	97.726	-136.9476
21.200001	97.785	-139.0055
21.799999	97.832	-141.0321
22.400000	97.870	-143.0341
23.000000	97.893	-144.9766
23.600000	97.900	-146.8490
24.299999	97.893	-148.9550
25.000000	97.876	-150.9661
25.799999	97.854	-153.1808
26.500000	97.829	-155.1160
27.200001	97.788	-157.0132
28.000000	97.739	-159.0400
29.000000	97.697	-161.4724
30.000000	97.636	-163.8286
30.700001	97.583	-165.3604
31.500000	97.528	-167.0901
32.500000	97.465	-169.2672
33.500000	97.402	-171.3461
34.500000	97.327	-173.2909
35.500000	97.250	-175.1169
36.500000	97.175	-176.9410
37.500000	97.095	-178.6926
38.700001	97.004	179.2770
40.000000	96.894	177.1390
41.200001	96.787	175.2941
42.500000	96.695	173.4186
43.700001	96.607	171.6313
45.000000	96.492	169.8545
46.200001	96.389	168.2482
47.500000	96.290	166.5697
48.700001	96.194	165.0865
50.000000	96.087	163.6149
51.500000	95.959	161.9172
53.000000	95.844	160.2433
54.500000	95.727	158.6328
56.000000	95.606	157.1713
58.000000	95.439	155.2079
60.000000	95.336	153.2648
61.500000	95.180	152.0368
63.000000	95.065	150.7635
65.000000	94.917	149.1938
67.000000	94.766	147.5886
69.000000	94.619	146.0955
71.000000	94.477	144.6730
73.000000	94.332	143.3152
75.000000	94.196	141.9778
77.500000	94.019	140.4280
80.000000	93.851	138.9246
82.500000	93.683	137.5158
85.000000	93.522	136.1588
87.500000	93.364	134.8609
90.000000	93.209	133.6109
92.500000	93.060	132.4116
95.000000	92.911	131.2613
97.500000	92.772	130.1795
100.000000	92.634	129.1223
103.000000	92.477	127.8762
106.000000	92.327	126.7520
109.000000	92.181	125.6251
112.000000	92.040	124.5658
115.000000	91.907	123.5242
118.000000	91.776	122.5717
122.000000	91.605	121.3036
125.000000	91.486	120.4023
128.000000	91.369	119.5311
132.000000	91.216	118.4129
136.000000	91.073	117.3434
140.000000	90.934	116.3343
145.000000	90.770	115.1120
150.000000	90.612	113.9596
155.000000	90.466	112.8576
160.000000	90.325	111.8077
165.000000	90.192	110.7950
170.000000	90.067	109.8428
175.000000	89.948	108.9062
180.000000	89.841	107.9272
185.000000	89.728	107.1806
190.000000	89.627	106.3638
195.000000	89.533	105.5616
200.000000	89.442	104.7950
206.000000	89.341	103.9071
212.000000	89.244	103.0666
218.000000	89.157	102.2527
224.000000	89.075	101.4660
230.000000	88.998	100.7069
236.000000	88.927	99.9622
243.000000	88.848	99.1493
250.000000	88.777	98.3687
258.000000	88.703	97.4971
265.000000	88.642	96.7764
272.000000	88.588	96.0726
280.000000	88.531	95.3079
290.000000	88.469	94.4020
300.000000	88.421	93.5977
307.000000	88.377	92.9485
315.000000	88.341	92.3030
325.000000	88.301	91.5483
335.000000	88.265	90.8183
345.000000	88.236	90.1348
355.000000	88.210	89.4863
365.000000	88.187	88.8640
375.000000	88.167	88.2875
387.000000	88.146	87.6353
400.000000	88.131	86.9718
412.000000	88.118	86.3939
425.000000	88.108	85.8343
437.000000	88.100	85.3541
450.000000	88.094	84.8787
462.000000	88.090	84.4774
475.000000	88.087	84.0814
487.000000	88.086	83.7565
500.000000	88.087	83.4402
515.000000	88.089	83.1363
530.000000	88.093	82.8637
545.000000	88.097	82.6477
560.000000	88.102	82.5050
580.000000	88.110	82.3682
600.000000	88.120	82.3108
615.000000	88.127	82.3372
630.000000	88.139	82.3967
650.000000	88.154	82.5448
670.000000	88.172	82.7908
690.000000	88.195	83.0933
710.000000	88.221	83.4718
730.000000	88.251	83.9161
750.000000	88.288	84.4174
775.000000	88.338	85.1163
800.000000	88.397	85.9217
825.000000	88.470	86.7950
850.000000	88.553	87.7131
875.000000	88.650	88.6899
900.000000	88.760	89.6853
925.000000	88.880	90.6757
950.000000	89.011	91.6624
975.000000	89.151	92.6268
1000.000000	89.296	93.5888
1030.000000	89.476	94.7354
1060.000000	89.669	95.9069
1090.000000	89.880	97.0842
1120.000000	90.119	98.1965
1150.000000	90.383	99.1364
1180.000000	90.655	99.8138
1220.000000	90.998	100.3452
1250.000000	91.226	100.5564
1280.000000	91.429	100.6955
1320.000000	91.661	100.8598
1360.000000	91.857	101.0682
1400.000000	92.027	101.3614
1450.000000	92.215	101.8792
1500.000000	92.385	102.5497
1550.000000	92.547	103.3818
1600.000000	92.707	104.3428
1650.000000	92.868	105.4006
1700.000000	93.035	106.5432
1750.000000	93.209	107.7470
1800.000000	93.392	108.9864
1850.000000	93.583	110.2437
1900.000000	93.785	111.5056
1950.000000	93.996	112.7440
2000.000000	94.217	113.9578
2060.000000	94.494	115.3415
2120.000000	94.782	116.6262
2180.000000	95.080	117.7807
2240.000000	95.383	118.7970
2300.000000	95.687	119.6429
2360.000000	95.990	120.3090
2430.000000	96.334	120.8446
2500.000000	96.659	121.1208
2580.000000	96.996	121.1310
2650.000000	97.250	120.9043
2720.000000	97.459	120.5029
2800.000000	97.635	119.9108
2900.000000	97.755	119.1285
3000.000000	97.770	118.4826
3070.000000	97.725	118.2096
3150.000000	97.630	118.1375
3250.000000	97.465	118.4658
3350.000000	97.270	119.2657
3450.000000	97.064	120.5193
3550.000000	96.864	122.1885
3650.000000	96.682	124.2051
3750.000000	96.526	126.5056
3870.000000	96.385	129.5424
4000.000000	96.300	132.9885
4120.000000	96.279	136.1063
4250.000000	96.295	139.2513
4370.000000	96.326	141.9034
4500.000000	96.357	144.5120
4620.000000	96.371	146.7518
4750.000000	96.378	149.0426
4870.000000	96.379	150.9604
5000.000000	96.359	152.6941
5150.000000	96.259	154.2293
5300.000000	96.017	155.5422
5450.000000	95.615	157.1511
5600.000000	95.079	159.5595
5800.000000	94.255	164.5798
6000.000000	93.451	171.9181
6150.000000	92.959	178.8999
6300.000000	92.639	-173.0015
6500.000000	92.630	-161.0349
6700.000000	93.281	-149.3257
6900.000000	94.609	-141.0832
7100.000000	96.169	-139.4114
7300.000000	97.268	-144.6492
7500.000000	97.292	-154.1305
7750.000000	95.496	-163.2003
8000.000000	92.791	-161.1589
8250.000000	90.352	-150.8577
8500.000000	88.446	-132.7317
8750.000000	88.175	-110.1697
9000.000000	89.337	-92.5020
9250.000000	91.390	-81.4420
9500.000000	93.620	-83.4176
9750.000000	94.025	-94.9411
10000.000000	92.643	-100.9430
10300.000000	90.770	-97.0070
10600.000000	89.611	-87.5618
10900.000000	89.207	-76.9305
11200.000000	89.440	-67.4511
11500.000000	90.195	-59.0483
11800.000000	91.982	-59.9747
12200.000000	93.399	-66.9874
12500.000000	92.851	-88.0632
12800.000000	90.731	-97.9316
13200.000000	87.930	-104.6032
13600.000000	84.907	-109.2558
14000.000000	81.364	-109.4058
14500.000000	77.311	-100.5947
15000.000000	74.654	-89.3844
15500.000000	73.582	-80.4465
16000.000000	74.157	-82.4953
16500.000000	75.042	-101.7602
17000.000000	74.389	-130.0557
17500.000000	72.952	-154.1723
18000.000000	72.221	-176.2662
18500.000000	72.594	155.6188
19000.000000	73.646	110.2539
19500.000000	73.428	37.6565
