* Measurement data measured by REW V5.20 Beta 26
* Source: Input device not selected, no input selected, R, volume: no control
* Format: 1M Log Swept Sine, 1 sweep at 0.0 dBFS With no timing reference
* Dated: Nov 6, 2019 9:49:02 AM
* REW Settings:
*  C-weighting compensation: Off
*  Target level: 75.0 dB
* Note: ; 
* Measurement: Tin Hifi T4 - L
* Smoothing: 1/48 octave
* Frequency Step: 1/24 octave
* Start Frequency: 20.600 Hz
*
* Freq(Hz)	SPL(dB)	Phase(degrees)
20.600000	83.266388	-144.8192
21.200001	83.359756	-145.7639
21.799999	83.419250	-146.7329
22.400000	83.454536	-147.7119
23.000000	83.481834	-148.6660
23.600000	83.518364	-149.6097
24.299999	83.580322	-150.7625
25.000000	83.653481	-152.0050
25.799999	83.728355	-153.4433
26.500000	83.780251	-154.5596
27.200001	83.831833	-155.4814
28.000000	83.899506	-156.4151
29.000000	83.972717	-157.5873
30.000000	84.015686	-158.7048
30.700001	84.042366	-159.4523
31.500000	84.073578	-160.4019
32.500000	84.080933	-161.6919
33.500000	84.076538	-162.6913
34.500000	84.121117	-163.6146
35.500000	84.162590	-164.6710
36.500000	84.195999	-165.6018
37.500000	84.217468	-166.5493
38.700001	84.216011	-167.3617
40.000000	84.270195	-168.3018
41.200001	84.274544	-169.4454
42.500000	84.252151	-170.4977
43.700001	84.244827	-171.2525
45.000000	84.253098	-172.2973
46.200001	84.230347	-172.9820
47.500000	84.248695	-173.8825
48.700001	84.210930	-174.4132
50.000000	84.270752	-174.8555
51.500000	84.290451	-175.8369
53.000000	84.281357	-176.6104
54.500000	84.215805	-177.4147
56.000000	84.204552	-177.7847
58.000000	84.142273	-179.0860
60.000000	84.140167	-179.5684
61.500000	84.204117	179.3226
63.000000	84.148254	179.0460
65.000000	84.150436	177.8572
67.000000	84.053673	176.7029
69.000000	84.127708	176.5977
71.000000	84.083260	175.2933
73.000000	84.096115	174.4073
75.000000	84.049217	173.8045
77.500000	84.012558	173.0074
80.000000	83.986725	172.1818
82.500000	83.967522	171.3908
85.000000	83.928856	170.6265
87.500000	83.894783	169.8651
90.000000	83.858070	169.1300
92.500000	83.822067	168.4153
95.000000	83.779205	167.7270
97.500000	83.736763	166.9932
100.000000	83.694290	166.3174
103.000000	83.638947	165.5837
106.000000	83.583832	164.8859
109.000000	83.531349	164.1845
112.000000	83.466995	163.5035
115.000000	83.395241	162.8503
118.000000	83.346611	162.2868
122.000000	83.253990	161.5010
125.000000	83.187080	160.9326
128.000000	83.122360	160.4034
132.000000	83.034271	159.7224
136.000000	82.956184	159.1276
140.000000	82.864784	158.5787
145.000000	82.751755	157.9193
150.000000	82.647362	157.2951
155.000000	82.537514	156.6891
160.000000	82.429489	156.1710
165.000000	82.340088	155.7859
170.000000	82.229996	155.1771
175.000000	82.123108	154.8967
180.000000	82.011459	154.5191
185.000000	81.925545	154.2528
190.000000	81.818443	154.0452
195.000000	81.710861	153.8142
200.000000	81.635544	153.6436
206.000000	81.525749	153.3953
212.000000	81.422981	153.1937
218.000000	81.317291	153.0647
224.000000	81.206680	152.9514
230.000000	81.111855	153.0719
236.000000	81.031189	153.1460
243.000000	80.953026	153.2733
250.000000	80.932953	153.2053
258.000000	80.871460	153.0306
265.000000	80.808189	152.8019
272.000000	80.733208	152.6731
280.000000	80.641335	152.5792
290.000000	80.542099	152.5336
300.000000	80.443169	152.5618
307.000000	80.358131	152.4376
315.000000	80.286743	152.4927
325.000000	80.182159	152.5523
335.000000	80.093735	152.6198
345.000000	80.007652	152.7796
355.000000	79.937752	153.0068
365.000000	79.864128	153.3105
375.000000	79.809624	153.4371
387.000000	79.756165	153.5197
400.000000	79.672356	153.7837
412.000000	79.598663	153.9531
425.000000	79.538559	154.2285
437.000000	79.485397	154.4843
450.000000	79.417442	154.8607
462.000000	79.363976	155.1330
475.000000	79.313339	155.4475
487.000000	79.276047	155.7561
500.000000	79.226700	156.1445
515.000000	79.173447	156.5849
530.000000	79.141167	156.9744
545.000000	79.103638	157.4120
560.000000	79.063599	157.8537
580.000000	79.023293	158.5920
600.000000	79.000519	159.2175
615.000000	78.970963	159.6950
630.000000	78.962723	160.2308
650.000000	78.939018	160.9628
670.000000	78.931061	161.6843
690.000000	78.922592	162.3433
710.000000	78.918243	163.2295
730.000000	78.938522	164.0857
750.000000	78.959114	164.9449
775.000000	78.994141	165.8943
800.000000	79.041153	166.6647
825.000000	78.993271	167.2455
850.000000	78.955917	169.2524
875.000000	79.052338	170.9745
900.000000	79.153549	172.4699
925.000000	79.283791	173.9884
950.000000	79.431038	175.4195
975.000000	79.607224	176.9071
1000.000000	79.826584	178.2231
1030.000000	80.066170	179.9516
1060.000000	80.377487	-178.5751
1090.000000	80.725449	-177.3299
1120.000000	81.091080	-176.3688
1150.000000	81.466835	-175.7106
1180.000000	81.839401	-175.3255
1220.000000	82.327011	-175.1915
1250.000000	82.684967	-175.3687
1280.000000	83.020142	-175.6678
1320.000000	83.415726	-176.2476
1360.000000	83.795166	-176.9368
1400.000000	84.137283	-177.7240
1450.000000	84.524879	-178.6337
1500.000000	84.900330	-179.5090
1550.000000	85.263329	179.6688
1600.000000	85.637260	178.9008
1650.000000	86.028625	178.0876
1700.000000	86.441910	177.1286
1750.000000	86.885208	175.8436
1800.000000	87.341339	174.0558
1850.000000	87.765923	171.6885
1900.000000	88.112892	168.8583
1950.000000	88.369545	165.8366
2000.000000	88.556305	162.7675
2060.000000	88.680023	159.3174
2120.000000	88.743843	155.9811
2180.000000	88.747719	152.8520
2240.000000	88.692360	149.8454
2300.000000	88.577896	147.1079
2360.000000	88.411049	144.6401
2430.000000	88.165604	142.1561
2500.000000	87.862068	140.2094
2580.000000	87.484573	138.7869
2650.000000	87.161377	138.2596
2720.000000	86.911392	138.1918
2800.000000	86.687759	137.9798
2900.000000	86.351616	137.6177
3000.000000	85.965233	137.8779
3070.000000	85.714584	138.5439
3150.000000	85.443253	139.5636
3250.000000	85.146507	141.1757
3350.000000	84.881363	142.9749
3450.000000	84.627022	144.9257
3550.000000	84.347122	147.2495
3650.000000	84.069000	150.3794
3750.000000	83.907455	154.2991
3870.000000	83.882835	159.0412
4000.000000	83.985603	163.9936
4120.000000	84.159531	168.3925
4250.000000	84.427818	172.9608
4370.000000	84.750984	176.9762
4500.000000	85.185684	-178.9591
4620.000000	85.659805	-175.6368
4750.000000	86.250359	-172.5718
4870.000000	86.851555	-170.4551
5000.000000	87.547737	-169.0552
5150.000000	88.367004	-169.0980
5300.000000	89.092628	-171.2070
5450.000000	89.516197	-175.3514
5600.000000	89.522751	-179.7967
5800.000000	88.941933	173.9130
6000.000000	87.648445	171.8442
6150.000000	86.609428	173.4455
6300.000000	85.663895	176.9336
6500.000000	84.603493	-176.3343
6700.000000	83.801407	-168.1138
6900.000000	83.246384	-159.1239
7100.000000	82.933685	-149.7977
7300.000000	82.848610	-140.3216
7500.000000	83.050331	-131.1402
7750.000000	83.739220	-121.5439
8000.000000	84.821533	-114.8816
8250.000000	86.074203	-116.0488
8500.000000	86.319023	-125.9232
8750.000000	84.584106	-135.5480
9000.000000	81.766937	-135.7287
9250.000000	78.996666	-127.8523
9500.000000	76.617577	-115.2832
9750.000000	74.605316	-100.0455
10000.000000	72.954697	-83.0634
10300.000000	71.263016	-60.9095
10600.000000	69.880714	-36.6487
10900.000000	68.876122	-9.8205
11200.000000	68.510498	20.7598
11500.000000	69.593826	52.7901
11800.000000	72.242455	75.7035
12200.000000	74.909096	89.0799
12500.000000	75.877190	95.3717
12800.000000	76.116089	101.0777
13200.000000	75.647057	112.1615
13600.000000	75.177208	126.9276
14000.000000	74.884041	141.4433
14500.000000	74.167191	155.9868
15000.000000	72.028702	173.4783
15500.000000	69.707039	-159.9012
16000.000000	67.870407	-127.6059
16500.000000	66.651955	-91.8175
17000.000000	66.039612	-55.0665
17500.000000	66.034111	-18.9489
18000.000000	66.297707	12.5004
18500.000000	66.114883	45.4302
19000.000000	67.076820	75.3663
19500.000000	67.764122	93.3334
