* Measurement data measured by REW V5.20 Beta 26
* Source: Microphone (2- USB Sound Device        ), MICROPHONE (Master Volume), R, volume: 0.250
* Format: 1M Log Swept Sine, 1 sweep Using a loopback as a timing reference
* Dated: Nov 30, 2019 11:27:42 AM
* REW Settings:
*  C-weighting compensation: Off
*  Target level: 75.0 dB
* Note: ; Delay 0.000 ms (0 mm, 0 in)  relative to Loopback with no timing offset
* Measurement: Sony WF-1000XM3 R FW
* Smoothing: 1/48 octave
* Frequency Step: 1/24 octave
* Start Frequency: 20.000 Hz
*
* Freq(Hz)	SPL(dB)	Phase(degrees)
20.000000	77.745949	-140.8356
20.600000	77.838745	-142.3122
21.200001	77.862770	-143.2146
21.799999	77.937927	-143.6981
22.400000	78.081406	-144.5564
23.000000	78.194839	-145.9972
23.600000	78.231911	-147.4648
24.299999	78.257950	-148.7236
25.000000	78.321030	-149.8769
25.799999	78.361389	-151.2559
26.500000	78.361496	-152.0599
27.200001	78.392792	-152.5208
28.000000	78.463684	-153.1862
29.000000	78.492470	-154.2097
30.000000	78.535072	-154.8398
30.700001	78.602066	-155.6235
31.500000	78.626556	-156.5153
32.500000	78.809547	-157.3479
33.500000	78.930214	-160.0265
34.500000	78.805237	-160.7703
35.500000	79.040558	-161.3983
36.500000	78.967201	-163.0179
37.500000	79.058472	-162.0450
38.700001	79.309120	-164.1302
40.000000	79.213371	-164.9142
41.200001	79.258453	-165.4676
42.500000	79.443748	-166.0292
43.700001	79.502274	-167.8603
45.000000	79.541901	-169.0497
46.200001	79.473434	-170.2068
47.500000	79.635712	-170.6387
48.700001	79.632950	-172.9748
50.000000	79.614090	-173.3495
51.500000	79.612587	-174.8261
53.000000	79.774445	-175.4513
54.500000	79.665184	-177.2275
56.000000	79.669159	-177.7957
58.000000	79.588654	-179.8089
60.000000	79.708710	179.1176
61.500000	79.637665	178.3208
63.000000	79.704659	178.2364
65.000000	79.835854	178.4121
67.000000	79.811310	176.9618
69.000000	79.775810	176.0576
71.000000	79.825050	175.2241
73.000000	79.813034	174.1406
75.000000	79.910492	173.3945
77.500000	79.960281	171.5290
80.000000	80.029495	170.4859
82.500000	80.081528	169.2232
85.000000	80.117691	167.7091
87.500000	80.120880	166.2734
90.000000	80.127090	164.9532
92.500000	80.157257	163.7215
95.000000	80.069817	161.8739
97.500000	80.149986	160.0310
100.000000	80.095673	158.8435
103.000000	80.147018	157.6043
106.000000	79.987823	155.6337
109.000000	79.804184	154.3776
112.000000	79.774483	153.1680
115.000000	79.746521	151.6557
118.000000	79.647400	150.5364
122.000000	79.551239	148.9198
125.000000	79.424576	147.7979
128.000000	79.278267	145.6898
132.000000	79.246284	144.7471
136.000000	79.034279	143.8539
140.000000	78.784882	142.9635
145.000000	78.715179	141.9041
150.000000	78.627991	140.8816
155.000000	78.403152	139.7927
160.000000	78.206192	139.2668
165.000000	78.057785	137.6653
170.000000	77.946449	137.1232
175.000000	77.960289	137.4004
180.000000	77.673630	136.5325
185.000000	77.579185	134.4677
190.000000	77.578217	134.1044
195.000000	77.400696	133.7711
200.000000	77.269455	132.7097
206.000000	77.146919	133.1007
212.000000	77.004807	133.1330
218.000000	76.900253	132.5270
224.000000	76.859070	131.8759
230.000000	76.778648	130.6634
236.000000	76.594872	130.8191
243.000000	76.484886	129.8691
250.000000	76.441246	129.2584
258.000000	76.419273	128.2775
265.000000	76.233467	127.8548
272.000000	76.064934	126.9394
280.000000	76.016663	126.2236
290.000000	76.003662	124.8243
300.000000	75.568291	126.6978
307.000000	75.640610	125.3159
315.000000	75.262878	122.3364
325.000000	75.162033	123.2664
335.000000	75.076767	122.5138
345.000000	74.958832	122.5815
355.000000	74.771492	122.9994
365.000000	74.533943	122.4618
375.000000	74.561012	122.0663
387.000000	74.564354	122.4373
400.000000	74.452728	122.7927
412.000000	74.450539	122.0859
425.000000	74.287193	122.6052
437.000000	74.527626	122.2029
450.000000	74.505692	121.5425
462.000000	74.440750	121.6116
475.000000	74.526207	120.2453
487.000000	74.499428	120.2959
500.000000	74.557816	119.3812
515.000000	74.551491	118.4057
530.000000	74.587486	117.3639
545.000000	74.547371	116.5024
560.000000	74.417213	115.1009
580.000000	74.341438	114.4321
600.000000	74.368607	112.2730
615.000000	74.217606	112.3125
630.000000	74.120331	110.7083
650.000000	73.964714	109.8972
670.000000	73.919296	108.1548
690.000000	73.826515	107.3994
710.000000	73.706039	107.3170
730.000000	73.519432	106.8416
750.000000	73.420921	106.8462
775.000000	73.232681	106.6391
800.000000	73.211769	106.2676
825.000000	73.085266	105.9427
850.000000	73.034973	106.8332
875.000000	72.946693	106.2860
900.000000	72.894020	106.8093
925.000000	72.869522	107.4279
950.000000	72.952545	107.1866
975.000000	73.039032	108.3629
1000.000000	73.144295	107.3468
1030.000000	73.193108	108.7973
1060.000000	73.519531	110.4908
1090.000000	73.796265	110.8245
1120.000000	74.190331	110.5516
1150.000000	74.482780	110.4483
1180.000000	74.776825	109.7941
1220.000000	75.226036	107.6547
1250.000000	75.490295	107.3915
1280.000000	75.787857	105.4159
1320.000000	76.231209	103.5570
1360.000000	76.415932	100.7210
1400.000000	76.697746	98.5798
1450.000000	76.962791	95.3902
1500.000000	77.301300	93.1716
1550.000000	77.503769	91.4019
1600.000000	77.644211	88.7912
1650.000000	77.882965	86.2808
1700.000000	78.149902	84.0658
1750.000000	78.267952	82.0584
1800.000000	78.564751	79.2594
1850.000000	78.886505	73.7275
1900.000000	79.107346	60.2212
1950.000000	79.434029	57.2787
2000.000000	79.676506	54.9613
2060.000000	80.137283	51.9579
2120.000000	80.377457	48.7007
2180.000000	80.862686	45.5145
2240.000000	81.459618	57.0035
2300.000000	81.617783	54.3819
2360.000000	81.990829	50.1173
2430.000000	82.443390	44.6729
2500.000000	82.657074	38.7596
2580.000000	83.015114	31.8403
2650.000000	83.088379	24.8871
2720.000000	82.889572	19.1681
2800.000000	82.690430	11.8018
2900.000000	82.181793	4.9456
3000.000000	81.716667	-0.1086
3070.000000	81.271599	-2.9320
3150.000000	80.928505	-5.7791
3250.000000	80.496796	-8.2181
3350.000000	80.178253	-10.8099
3450.000000	80.007347	-12.6504
3550.000000	79.953247	-15.2192
3650.000000	79.840897	-17.7836
3750.000000	79.796944	-19.8701
3870.000000	79.671913	-23.7076
4000.000000	79.425903	-27.9476
4120.000000	79.038528	-30.3335
4250.000000	78.577438	-32.3724
4370.000000	78.146843	-33.8253
4500.000000	77.808289	-34.2241
4620.000000	77.621674	-33.6309
4750.000000	77.357170	-33.3497
4870.000000	77.321838	-33.2520
5000.000000	76.869591	-30.1284
5150.000000	78.278374	-28.2799
5300.000000	78.246063	-30.1567
5450.000000	77.782410	-24.2726
5600.000000	79.474945	-19.1238
5800.000000	79.151169	-17.7367
6000.000000	78.986176	-13.2872
6150.000000	78.806351	-9.2197
6300.000000	78.519608	-6.9070
6500.000000	78.037537	-7.6631
6700.000000	77.504913	-7.2658
6900.000000	76.999466	-5.5781
7100.000000	76.553696	-2.9025
7300.000000	76.111237	0.9806
7500.000000	75.870293	6.5109
7750.000000	76.007011	13.8134
8000.000000	76.325592	22.1539
8250.000000	77.570145	29.2211
8500.000000	79.717026	30.2422
8750.000000	81.724586	17.7343
9000.000000	81.344398	-5.0518
9250.000000	78.364555	-17.3414
9500.000000	75.314148	-16.2976
9750.000000	72.851425	-7.1226
10000.000000	70.962357	4.1482
10300.000000	69.609329	19.6584
10600.000000	68.626465	35.0906
10900.000000	67.991112	50.1993
11200.000000	67.329437	66.3863
11500.000000	66.905556	81.9400
11800.000000	66.669373	98.9202
12200.000000	66.916786	124.1406
12500.000000	67.454247	141.5909
12800.000000	68.352844	159.2651
13200.000000	70.294159	174.9581
13600.000000	71.987206	-172.7506
14000.000000	72.749870	-145.0782
14500.000000	74.555069	-30.7831
15000.000000	76.112747	-15.6152
15500.000000	77.603752	-8.5641
16000.000000	77.363853	-5.5337
16500.000000	75.498528	4.6013
17000.000000	69.867523	-163.1868
17500.000000	48.019772	-121.9043
18000.000000	47.418591	148.9102
18500.000000	47.119774	124.0547
19000.000000	46.530323	42.8047
19500.000000	46.038300	132.8125
