* Measurement data measured by REW V5.20 Beta 26
* Source: Microphone (2- USB Sound Device        ), MICROPHONE (Master Volume), R, volume: 0.557
* Format: 1M Log Swept Sine, 1 sweep at 0.0 dBFS Using a loopback as a timing reference
* Dated: Nov 30, 2019 10:30:48 AM
* REW Settings:
*  C-weighting compensation: Off
*  Target level: 75.0 dB
* Note: ; Delay 0.000 ms (0 mm, 0 in)  relative to Loopback with no timing offset
* Measurement: Sony WF-1000XM3 L
* Smoothing: 1/48 octave
* Frequency Step: 1/24 octave
* Start Frequency: 20.000 Hz
*
* Freq(Hz)	SPL(dB)	Phase(degrees)
20.000000	70.780228	-132.8571
20.600000	70.924728	-134.4568
21.200001	71.002449	-135.6683
21.799999	71.078278	-136.4645
22.400000	71.207191	-137.2204
23.000000	71.369843	-138.4214
23.600000	71.490181	-140.1577
24.299999	71.512810	-142.2409
25.000000	71.472595	-143.6166
25.799999	71.503792	-144.4335
26.500000	71.616936	-145.1577
27.200001	71.756264	-146.1271
28.000000	71.893387	-147.4999
29.000000	71.970665	-149.0803
30.000000	72.045929	-150.0444
30.700001	72.110550	-150.7979
31.500000	72.156296	-151.5211
32.500000	72.286407	-152.4370
33.500000	72.342026	-154.1256
34.500000	72.368851	-154.9599
35.500000	72.530571	-156.8389
36.500000	72.359116	-158.9181
37.500000	72.327507	-157.9234
38.700001	72.813576	-159.2321
40.000000	72.840965	-161.9153
41.200001	73.028763	-162.9865
42.500000	73.042908	-165.1437
43.700001	73.159447	-165.8188
45.000000	73.219688	-167.6893
46.200001	73.350906	-168.7357
47.500000	73.358261	-171.3938
48.700001	73.232841	-171.9576
50.000000	73.346985	-172.6277
51.500000	73.369896	-174.0704
53.000000	73.414505	-175.3805
54.500000	73.377632	-176.9982
56.000000	73.343895	-178.1425
58.000000	73.237030	-179.5060
60.000000	73.496475	178.6907
61.500000	73.248985	177.4138
63.000000	73.188789	177.7563
65.000000	73.306465	176.9022
67.000000	73.135086	175.8147
69.000000	73.074425	174.7513
71.000000	73.187187	173.7755
73.000000	73.247871	172.8358
75.000000	73.313179	172.2010
77.500000	73.368515	169.8845
80.000000	73.333473	168.8804
82.500000	73.316002	167.3203
85.000000	73.287910	165.5141
87.500000	73.423256	164.3591
90.000000	73.433449	162.6966
92.500000	73.380096	160.9090
95.000000	73.362045	159.7241
97.500000	73.224411	158.3202
100.000000	73.241486	156.7025
103.000000	73.177284	155.1421
106.000000	73.123398	153.9185
109.000000	73.105431	152.8112
112.000000	72.987106	150.4124
115.000000	72.974648	149.5663
118.000000	72.780884	148.8362
122.000000	72.692749	146.3312
125.000000	72.707718	145.1277
128.000000	72.501709	144.9468
132.000000	72.361076	142.1022
136.000000	72.248344	140.9308
140.000000	72.030762	140.1429
145.000000	71.874825	138.4729
150.000000	71.585815	137.8309
155.000000	71.628593	135.7241
160.000000	71.339844	135.1321
165.000000	71.125809	134.4756
170.000000	71.030930	133.7609
175.000000	70.862495	133.4020
180.000000	70.632599	131.5855
185.000000	70.545494	130.6371
190.000000	70.398109	130.9404
195.000000	70.422409	129.9947
200.000000	70.318962	130.6437
206.000000	70.090958	129.2176
212.000000	70.240845	127.7107
218.000000	69.989532	126.5780
224.000000	69.848915	127.0707
230.000000	69.918045	125.7654
236.000000	69.785828	124.7672
243.000000	69.740906	124.1921
250.000000	69.616287	123.5303
258.000000	69.248749	123.2415
265.000000	69.215279	121.4196
272.000000	69.098854	121.2622
280.000000	69.066017	120.1307
290.000000	68.868179	118.9837
300.000000	68.743210	117.5505
307.000000	68.541107	116.9182
315.000000	68.421700	116.3504
325.000000	68.384430	116.2639
335.000000	68.140900	115.9158
345.000000	68.037697	115.4319
355.000000	67.955635	115.0082
365.000000	67.840126	114.5776
375.000000	67.741081	113.6725
387.000000	67.722786	113.2406
400.000000	67.495872	113.2038
412.000000	67.453300	113.4622
425.000000	67.426689	113.0416
437.000000	67.482063	112.6691
450.000000	67.365509	111.9975
462.000000	67.513412	110.4623
475.000000	67.517227	109.9805
487.000000	67.498894	109.3339
500.000000	67.454262	108.1507
515.000000	67.602097	107.3073
530.000000	67.536064	105.4909
545.000000	67.512421	103.8898
560.000000	67.681549	102.0674
580.000000	67.526672	100.7015
600.000000	67.397957	99.4706
615.000000	67.209198	96.7593
630.000000	67.302254	96.2326
650.000000	67.188797	94.9012
670.000000	67.035278	92.6550
690.000000	66.916313	91.8007
710.000000	66.841484	91.2869
730.000000	66.692169	89.9634
750.000000	66.524590	88.8505
775.000000	66.506393	87.4623
800.000000	66.492355	86.8049
825.000000	66.230255	86.8009
850.000000	65.959335	86.3801
875.000000	66.081726	86.6051
900.000000	66.074440	86.6106
925.000000	65.980339	85.6605
950.000000	66.015556	85.4404
975.000000	66.079231	85.5782
1000.000000	66.450821	87.2562
1030.000000	66.482735	85.7333
1060.000000	66.810379	85.5488
1090.000000	67.092384	84.9425
1120.000000	67.372917	84.3415
1150.000000	67.591194	82.8405
1180.000000	68.022118	81.0048
1220.000000	68.308273	78.5993
1250.000000	68.594528	76.7856
1280.000000	68.837067	75.5333
1320.000000	69.321617	72.2574
1360.000000	69.682381	69.2775
1400.000000	69.933540	66.1725
1450.000000	70.183517	61.7069
1500.000000	70.455086	59.0310
1550.000000	70.870399	54.5101
1600.000000	71.114014	50.2754
1650.000000	71.309227	46.4476
1700.000000	71.550049	42.8841
1750.000000	71.820999	39.8526
1800.000000	72.164703	35.3816
1850.000000	72.272064	32.3522
1900.000000	72.537872	27.9816
1950.000000	72.772736	24.1930
2000.000000	73.076920	19.9886
2060.000000	73.295586	16.8816
2120.000000	73.766167	28.7887
2180.000000	74.040543	25.0472
2240.000000	74.569054	19.7754
2300.000000	74.838852	14.4156
2360.000000	75.077972	9.9205
2430.000000	75.518250	3.0018
2500.000000	75.922958	-4.8085
2580.000000	76.049660	-13.3381
2650.000000	75.956032	-21.0856
2720.000000	75.783035	-27.1613
2800.000000	75.704376	-35.3428
2900.000000	75.181595	-43.5848
3000.000000	74.771835	-49.8900
3070.000000	74.344421	-54.0490
3150.000000	74.182045	-63.8680
3250.000000	73.791382	-89.5609
3350.000000	73.554901	-95.0688
3450.000000	73.441658	-100.4103
3550.000000	73.302444	-105.0051
3650.000000	73.308990	-110.2435
3750.000000	73.164581	-115.7242
3870.000000	73.178871	-122.6472
4000.000000	72.878319	-130.6525
4120.000000	72.544304	-137.9092
4250.000000	71.958847	-144.2192
4370.000000	71.443153	-148.3882
4500.000000	71.118118	-151.8600
4620.000000	70.818222	-155.3740
4750.000000	70.580002	-157.6141
4870.000000	70.650932	-159.4775
5000.000000	70.595757	-162.7059
5150.000000	70.446144	-154.8496
5300.000000	71.426498	-120.8052
5450.000000	71.811386	-130.2478
5600.000000	71.522110	-135.5361
5800.000000	72.731293	-141.6162
6000.000000	72.487923	-151.8481
6150.000000	72.241776	-157.5400
6300.000000	71.882454	-163.4488
6500.000000	71.426407	-169.4875
6700.000000	70.736488	-174.4209
6900.000000	70.056335	-177.6203
7100.000000	69.516762	-179.4844
7300.000000	69.195953	-179.5355
7500.000000	68.832939	-179.6315
7750.000000	69.119301	-177.5064
8000.000000	69.830154	-176.6539
8250.000000	71.277878	-177.6324
8500.000000	73.369980	174.0011
8750.000000	74.752029	150.6822
9000.000000	73.504272	124.2745
9250.000000	70.464851	110.7473
9500.000000	67.764633	108.3971
9750.000000	65.575577	110.9141
10000.000000	64.185646	115.5825
10300.000000	62.768860	121.8821
10600.000000	61.916626	128.2334
10900.000000	61.080002	134.7466
11200.000000	60.490417	141.7286
11500.000000	60.049618	149.7897
11800.000000	59.728302	158.9847
12200.000000	59.850052	172.9205
12500.000000	60.527172	-177.6556
12800.000000	61.404549	-167.7153
13200.000000	63.179958	-160.6273
13600.000000	65.103806	-158.8979
14000.000000	66.369209	-160.1088
14500.000000	67.923805	-161.8162
15000.000000	69.415230	-167.1319
15500.000000	70.411407	-178.1123
16000.000000	69.707260	168.5415
16500.000000	67.812592	164.8890
17000.000000	63.150742	3.5254
17500.000000	40.644550	-99.1797
18000.000000	40.551674	149.6641
18500.000000	39.787052	-109.9531
19000.000000	40.023544	98.9062
19500.000000	38.694660	-87.2578
