* Measurement data measured by REW V5.20
* Source: Headset (USB-C to 3.5mm Headphone Jack Adapter), MICROPHONE (Master Volume), R, volume: 0.260
* Format: 512k Log Swept Sine, 1 sweep at 0.0 dBFS with no timing reference
* Dated: Jan 21, 2022 6:54:01 PM
* REW Settings:
*  C-weighting compensation: Off
*  Target level: 75.0 dB
* Note: ; 
* Measurement: Yume Midnight L
* Smoothing: 1/48 octave
* Frequency Step: 1/24 octave
* Start Frequency: 20.600 Hz
*
* Freq(Hz)	SPL(dB)	Phase(degrees)
20.600000	95.825050	-167.8663
21.200001	95.852287	-169.7358
21.799999	95.880043	-171.4936
22.400000	95.900917	-173.2217
23.000000	95.917831	-174.9500
23.600000	95.933456	-176.6305
24.299999	95.941971	-178.5134
25.000000	95.938805	179.6335
25.799999	95.932259	177.5703
26.500000	95.918686	175.8626
27.200001	95.899002	174.2065
28.000000	95.876320	172.3530
29.000000	95.837036	170.0829
30.000000	95.793785	167.9119
30.700001	95.762085	166.4363
31.500000	95.719467	164.7828
32.500000	95.664978	162.8258
33.500000	95.605583	160.9371
34.500000	95.541222	159.0715
35.500000	95.471786	157.3098
36.500000	95.403099	155.5900
37.500000	95.331818	153.9235
38.700001	95.239754	151.9891
40.000000	95.140488	149.9673
41.200001	95.042786	148.2039
42.500000	94.941498	146.3476
43.700001	94.842400	144.6564
45.000000	94.731049	142.9318
46.200001	94.629303	141.3747
47.500000	94.530106	139.7723
48.700001	94.426270	138.2986
50.000000	94.317429	136.7816
51.500000	94.195328	135.0655
53.000000	94.065018	133.4592
54.500000	93.942619	131.8866
56.000000	93.817329	130.3601
58.000000	93.655396	128.4148
60.000000	93.493019	126.5762
61.500000	93.372604	125.1772
63.000000	93.254883	123.8953
65.000000	93.096565	122.1990
67.000000	92.943672	120.5652
69.000000	92.791336	119.0245
71.000000	92.644058	117.5227
73.000000	92.499290	116.0766
75.000000	92.355392	114.6792
77.500000	92.181198	112.9969
80.000000	92.010330	111.3850
82.500000	91.847900	109.7899
85.000000	91.683472	108.3412
87.500000	91.526909	106.9056
90.000000	91.367447	105.4279
92.500000	91.223801	104.1926
95.000000	91.077522	102.8915
97.500000	90.939636	101.6455
100.000000	90.802002	100.4521
103.000000	90.642502	99.0354
106.000000	90.489113	97.7085
109.000000	90.368561	95.7584
112.000000	90.197922	95.1615
115.000000	90.057243	93.9733
118.000000	89.920555	92.8115
122.000000	89.748840	91.3468
125.000000	89.623833	90.2739
128.000000	89.502716	89.2371
132.000000	89.346588	87.9094
136.000000	89.197556	86.6236
140.000000	89.058586	85.3943
145.000000	88.891266	83.9469
150.000000	88.730682	82.5572
155.000000	88.577736	81.2408
160.000000	88.436371	79.9799
165.000000	88.298645	78.7980
170.000000	88.170654	77.6562
175.000000	88.049324	76.5771
180.000000	87.933128	75.5521
185.000000	87.820999	74.5607
190.000000	87.715286	73.6140
195.000000	87.615555	72.7129
200.000000	87.520691	71.8495
206.000000	87.414352	70.8808
212.000000	87.314186	69.9557
218.000000	87.224037	69.1060
224.000000	87.126732	68.2613
230.000000	87.041183	67.4647
236.000000	86.960594	66.7167
243.000000	86.871292	65.9160
250.000000	86.788338	65.1435
258.000000	86.699005	64.3294
265.000000	86.626762	63.6643
272.000000	86.558937	63.0521
280.000000	86.485992	62.3940
290.000000	86.404922	61.6353
300.000000	86.330154	60.9472
307.000000	86.281311	60.5271
315.000000	86.231789	60.0741
325.000000	86.181747	59.5800
335.000000	86.144218	59.0621
345.000000	86.116814	58.5032
355.000000	86.086029	57.8531
365.000000	86.031403	57.1507
375.000000	85.948235	56.5554
387.000000	85.839432	56.1487
400.000000	85.741249	55.9332
412.000000	85.668610	55.8279
425.000000	85.602013	55.7691
437.000000	85.544914	55.7327
450.000000	85.487640	55.7288
462.000000	85.433945	55.7595
475.000000	85.377556	55.8306
487.000000	85.323044	55.9467
500.000000	85.262764	56.1385
515.000000	85.192444	56.4483
530.000000	85.123306	56.8704
545.000000	85.057899	57.4197
560.000000	85.002144	58.0782
580.000000	84.950302	59.0878
600.000000	84.924377	60.1885
615.000000	84.919609	61.0364
630.000000	84.925415	61.8729
650.000000	84.942566	62.9720
670.000000	84.966484	64.0553
690.000000	84.995125	65.1395
710.000000	85.027222	66.2467
730.000000	85.062721	67.3802
750.000000	85.103180	68.5427
775.000000	85.161469	70.0363
800.000000	85.230621	71.5894
825.000000	85.311646	73.1805
850.000000	85.408394	74.8016
875.000000	85.520233	76.4409
900.000000	85.649460	78.0768
925.000000	85.795265	79.6837
950.000000	85.955910	81.2370
975.000000	86.132278	82.7258
1000.000000	86.321381	84.1263
1030.000000	86.560715	85.6699
1060.000000	86.808754	87.0440
1090.000000	87.058609	88.2527
1120.000000	87.305161	89.2984
1150.000000	87.543365	90.1914
1180.000000	87.767654	90.9717
1220.000000	88.043671	91.8666
1250.000000	88.232346	92.4699
1280.000000	88.405441	93.0386
1320.000000	88.615280	93.7824
1360.000000	88.804771	94.5376
1400.000000	88.975578	95.3141
1450.000000	89.167816	96.3492
1500.000000	89.346741	97.4796
1550.000000	89.518532	98.6985
1600.000000	89.690590	99.9770
1650.000000	89.863968	101.3028
1700.000000	90.041573	102.6404
1750.000000	90.222481	103.9795
1800.000000	90.408646	105.2982
1850.000000	90.599556	106.5936
1900.000000	90.794846	107.8492
1950.000000	90.993233	109.0440
2000.000000	91.195518	110.1682
2060.000000	91.438599	111.4072
2120.000000	91.677361	112.5119
2180.000000	91.904007	113.5133
2240.000000	92.124168	114.4897
2300.000000	92.358353	115.3517
2360.000000	92.582314	115.9753
2430.000000	92.818459	116.5274
2500.000000	93.031143	116.9115
2580.000000	93.237991	117.1237
2650.000000	93.375839	117.1633
2720.000000	93.471420	117.1346
2800.000000	93.528770	117.1032
2900.000000	93.528618	117.1686
3000.000000	93.463913	117.4523
3070.000000	93.387680	117.8267
3150.000000	93.278740	118.4498
3250.000000	93.122559	119.5326
3350.000000	92.957726	120.9522
3450.000000	92.798584	122.6858
3550.000000	92.659927	124.7009
3650.000000	92.556000	126.9294
3750.000000	92.500076	129.2652
3870.000000	92.508575	131.9844
4000.000000	92.602852	134.4829
4120.000000	92.742844	136.0226
4250.000000	92.893372	136.4298
4370.000000	92.901802	135.1902
4500.000000	92.446602	132.7066
4620.000000	91.483215	132.9865
4750.000000	90.586082	138.4110
4870.000000	90.303719	144.4174
5000.000000	90.283653	149.4638
5150.000000	90.292854	153.6942
5300.000000	90.246445	157.1674
5450.000000	90.133957	160.4843
5600.000000	89.993050	164.0832
5800.000000	89.858353	169.4166
6000.000000	89.835953	175.0522
6150.000000	89.916016	179.4053
6300.000000	90.115425	-176.3220
6500.000000	90.583252	-171.3745
6700.000000	91.238571	-167.7462
6900.000000	92.088379	-166.3114
7100.000000	92.974281	-168.4975
7300.000000	93.500992	-174.9487
7500.000000	93.202629	176.6270
7750.000000	91.790390	169.4738
8000.000000	89.969589	168.7465
8250.000000	88.357758	172.8604
8500.000000	87.127266	179.6511
8750.000000	86.297180	-172.0457
9000.000000	85.909653	-163.4153
9250.000000	85.876564	-155.3534
9500.000000	86.161285	-148.2508
9750.000000	86.732346	-142.7371
10000.000000	87.500511	-139.5850
10300.000000	88.475822	-139.7081
10600.000000	89.155510	-144.2145
10900.000000	89.219421	-151.3821
11200.000000	88.580551	-158.9223
11500.000000	87.388618	-164.5949
11800.000000	85.814934	-167.8898
12200.000000	83.540680	-167.7408
12500.000000	81.914116	-164.9045
12800.000000	80.557655	-160.4356
13200.000000	79.263145	-154.4172
13600.000000	78.388916	-150.9026
14000.000000	77.487625	-149.4242
14500.000000	76.711273	-146.8231
15000.000000	76.869095	-150.6755
15500.000000	75.645058	-161.0115
16000.000000	74.681046	-161.6999
16500.000000	74.906891	-165.8907
17000.000000	75.800102	-175.3061
17500.000000	77.540222	167.6022
18000.000000	80.375198	137.4652
18500.000000	84.006271	83.0032
19000.000000	85.759682	-4.6509
19500.000000	84.049080	-111.2383
